 #nu=   1.3999999761581421      GHz | frms=   1.0000000000000001E-005 Jy/beam | B0=   4.6999998092651367      muG | rmax=   0.0000000000000000      kpc | UL=    3.5798124717984853E-002 Jy
 mass (GeV) | < sigma v > (cm^3 s^-1)
     0.5000000000E+01     0.1513113595E-23
     0.5272059515E+01     0.1180683332E-23
     0.5558922307E+01     0.9401289655E-24
     0.5861393849E+01     0.7628118274E-24
     0.6180323443E+01     0.6298862349E-24
     0.6516606603E+01     0.5286813112E-24
     0.6871187570E+01     0.4505225924E-24
     0.7245061962E+01     0.3893767034E-24
     0.7639279571E+01     0.3409787017E-24
     0.8054947311E+01     0.3022631088E-24
     0.8493232323E+01     0.2709991923E-24
     0.8955365257E+01     0.2455407136E-24
     0.9442643724E+01     0.2246580125E-24
     0.9956435939E+01     0.2074211237E-24
     0.1049818457E+02     0.1939115959E-24
     0.1106941077E+02     0.1828369231E-24
     0.1167171847E+02     0.1737233635E-24
     0.1230679889E+02     0.1662561104E-24
     0.1297643524E+02     0.1601769795E-24
     0.1368250777E+02     0.1553039943E-24
     0.1442699906E+02     0.1514682497E-24
     0.1521199953E+02     0.1485575311E-24
     0.1603971338E+02     0.1464795452E-24
     0.1691246471E+02     0.1451611664E-24
     0.1783270410E+02     0.1445544823E-24
     0.1880301547E+02     0.1446276560E-24
     0.1982612332E+02     0.1453681128E-24
     0.2090490042E+02     0.1467785439E-24
     0.2204237584E+02     0.1488803843E-24
     0.2324174345E+02     0.1517106887E-24
     0.2450637095E+02     0.1553510366E-24
     0.2583980923E+02     0.1573484120E-24
     0.2724580242E+02     0.1582690583E-24
     0.2872829838E+02     0.1595142975E-24
     0.3029145977E+02     0.1610778403E-24
     0.3193967574E+02     0.1629608186E-24
     0.3367757429E+02     0.1651739252E-24
     0.3551003519E+02     0.1677204575E-24
     0.3744220379E+02     0.1706135129E-24
     0.3947950535E+02     0.1738880792E-24
     0.4162766037E+02     0.1775676514E-24
     0.4389270059E+02     0.1816839684E-24
     0.4628098596E+02     0.1862963755E-24
     0.4879922249E+02     0.1914396175E-24
     0.5145448105E+02     0.1959577221E-24
     0.5425421729E+02     0.1998324492E-24
     0.5720629250E+02     0.2040575645E-24
     0.6031899574E+02     0.2086703898E-24
     0.6360106709E+02     0.2137016035E-24
     0.6706172219E+02     0.2191880500E-24
     0.7071067812E+02     0.2251770971E-24
     0.7455818068E+02     0.2317078229E-24
     0.7861503318E+02     0.2388402756E-24
     0.8289262675E+02     0.2459508893E-24
     0.8740297232E+02     0.2531926351E-24
     0.9215873438E+02     0.2609623937E-24
     0.9717326651E+02     0.2690476254E-24
     0.1024606489E+03     0.2775077368E-24
     0.1080357278E+03     0.2862921918E-24
     0.1139141573E+03     0.2957738876E-24
     0.1201124434E+03     0.3060123889E-24
     0.1266479900E+03     0.3170706993E-24
     0.1335391482E+03     0.3290248716E-24
     0.1408052674E+03     0.3419440808E-24
     0.1484667499E+03     0.3559252469E-24
     0.1565451083E+03     0.3701277214E-24
     0.1650630256E+03     0.3852144427E-24
     0.1740444190E+03     0.4014788659E-24
     0.1835145070E+03     0.4185711677E-24
     0.1934998806E+03     0.4368339762E-24
     0.2040285773E+03     0.4563483437E-24
     0.2151301605E+03     0.4770261872E-24
     0.2268358020E+03     0.4992858166E-24
     0.2391783696E+03     0.5232357321E-24
     0.2521925199E+03     0.5488591835E-24
     0.2659147948E+03     0.5756024591E-24
     0.2803837249E+03     0.6043501715E-24
     0.2956399370E+03     0.6352631704E-24
     0.3117262686E+03     0.6685292609E-24
     0.3286878881E+03     0.7043020399E-24
     0.3465724216E+03     0.7428187317E-24
     0.3654300866E+03     0.7832789179E-24
     0.3853138330E+03     0.8265922044E-24
     0.4062794920E+03     0.8731617708E-24
     0.4283859323E+03     0.9232655488E-24
     0.4516952262E+03     0.9771724381E-24
     0.4762728230E+03     0.1035148077E-23
     0.5021877337E+03     0.1097441039E-23
     0.5295127240E+03     0.1163279345E-23
     0.5583245190E+03     0.1234131310E-23
     0.5887040187E+03     0.1310375081E-23
     0.6207365247E+03     0.1392466744E-23
     0.6545119803E+03     0.1480774959E-23
     0.6901252227E+03     0.1575829299E-23
     0.7276762495E+03     0.1678079075E-23
     0.7672704990E+03     0.1787840522E-23
     0.8090191470E+03     0.1905687856E-23
     0.8530394185E+03     0.2032590640E-23
     0.8994549166E+03     0.2169304801E-23
     0.9483959704E+03     0.2316514444E-23
     0.1000000000E+04     0.2475025616E-23
